28.7504386968796,26.6504066529336,24.750377660792,23.7503624017701,23.5503593499658,23.6503608758679,23.6503608758679,23.6503608758679,23.7503624017701,24.3503715571833,25.3503868162052,26.4504036011293,27.350417334249,27.8504249637599,28.2504310673687,28.5504356450752,28.8504402227818,28.8504402227818,28.4504341191731,27.7504234378577,27.5504203860533,28.3504325932709,30.3504631113147,32.8505012588694,34.6505287251088,34.9505333028154,33.8505165178913,32.1504905775541,31.4504798962387,32.7504997329672,35.8505470359351,39.8506080720227,43.2506599526971,45.0506874189365,45.3506919966431,44.9506858930344,44.75068284123,45.2506904707409,46.1507042038606,46.5507103074694,45.9507011520562,44.75068284123,43.8506691081103,44.1506736858168,46.1507042038606,48.8507454032197,50.6507728694592,50.050763714046,46.850714885176,42.2506446936752,38.450586709392,37.0505653467614,38.3505851834898,41.3506309605555,44.1506736858168,45.2506904707409,44.250675211719,41.8506385900665,39.3506004425117,37.6505745021745,37.0505653467614,37.2505683985657,37.9505790798811,38.8505928130008,39.9506095979249,40.6506202792402,40.3506157015336,38.5505882352942,35.5505424582285,32.2504921034563,30.0504585336081,30.0504585336081,31.9504875257497,34.6505287251088,36.350554665446,36.1505516136417,34.0505195696957,31.3504783703366,29.5504509040971,29.8504554818037,32.2504921034563,35.8505470359351,39.2505989166095,41.3506309605555,41.4506324864577,39.7506065461205,37.0505653467614,34.3505241474022,32.5504966811628,32.2504921034563,33.4505104142825,35.4505409323263,37.1505668726636,37.9505790798811,37.4505714503701,36.2505531395438,35.1505363546198,34.750530251011,35.250537880522,36.0505500877395,36.350554665446,35.5505424582285,33.8505165178913,32.0504890516519,31.3504783703366,32.1504905775541,34.1505210955979,35.9505485618373,36.6505592431526,35.4505409323263,33.0505043106738,30.3504631113147,28.7504386968796,28.7504386968796,30.6504676890212,33.7505149919891,37.2505683985657,40.3506157015336,42.0506416418708,41.7506370641643,39.2505989166095,35.250537880522,31.05047379263,28.1504295414665,27.350417334249,28.3504325932709,30.1504600595103,31.3504783703366,31.5504814221409,31.05047379263,31.1504753185322,32.7504997329672,35.7505455100329,39.0505958648052,41.2506294346533,41.6506355382621,40.6506202792402,39.2505989166095,38.7505912870986,39.2505989166095,40.0506111238271,39.9506095979249,37.9505790798811,34.5505271992066,30.8504707408256,28.7504386968796,29.3504478522928,32.5504966811628,36.9505638208592,40.4506172274358,41.6506355382621,40.2506141756314,37.3505699244679,34.750530251011,33.9505180437935,35.3505394064241,38.0505806057833,40.9506248569468,42.650650797284,42.7506523231862,41.5506340123599,39.5506034943161,37.4505714503701,35.7505455100329,34.8505317769132,34.750530251011,35.7505455100329,37.7505760280767,40.3506157015336,43.4506630045015,46.5507103074694,49.7507591363395,53.5508171206227,58.2508888380256,64.3509819180591,71.9510978866256,80.7512321660183,90.4513801785307,100.251529716945,109.451670099947,116.851783016709,121.351851682307,122.151863889525,119.051816586557,112.451715877012,103.451578545815,93.1514213778898,82.1512535286489,70.5510765239949,57.6508796826124,43.4506630045015,28.1504295414665,13.150200656138,0.250003814755565,-8.55013046463713,-12.6501930266269,-12.150185397116,-8.75013351644151,-4.45006790264735,-0.950014496070711,1.45002212558184,3.25004959182126,5.95009079118038,10.5501609826811,17.0502601663234,24.2503700312811,30.550466163119,34.3505241474022,35.4505409323263,34.8505317769132,34.1505210955979,34.750530251011,36.5505577172504,38.7505912870986,39.8506080720227,38.950594338903,36.6505592431526,34.3505241474022,33.7505149919891,35.6505439841307,39.2505989166095,42.8506538490884,44.9506858930344,44.6506813153278,42.5506492713818,39.8506080720227,37.8505775539789,36.9505638208592,36.9505638208592,37.4505714503701,37.8505775539789,38.450586709392,39.4506019684139,40.8506233310446,42.2506446936752,43.3506614785993,43.4506630045015,42.650650797284,41.1506279087511,39.6506050202183,38.5505882352942,38.2505836575876,38.7505912870986,39.7506065461205,41.050626382849,42.0506416418708,42.5506492713818,42.3506462195774,41.4506324864577,40.3506157015336,39.6506050202183,39.4506019684139,39.7506065461205,39.9506095979249,39.4506019684139,38.1505821316855,36.350554665446,35.250537880522,35.7505455100329,37.9505790798811,41.1506279087511,43.8506691081103,44.6506813153278,43.2506599526971,40.4506172274358,37.9505790798811,37.2505683985657,38.6505897611964,41.4506324864577,43.8506691081103,44.5506797894256,42.9506553749906,40.0506111238271,37.1505668726636,35.6505439841307,35.9505485618373,37.6505745021745,40.0506111238271,41.8506385900665,42.650650797284,42.3506462195774,41.1506279087511,39.3506004425117,37.4505714503701,35.6505439841307,34.3505241474022,33.9505180437935,34.2505226215001,35.3505394064241,36.6505592431526,37.6505745021745,38.0505806057833,37.8505775539789,37.8505775539789,38.3505851834898,39.8506080720227,41.8506385900665,43.5506645304037,43.9506706340125,42.8506538490884,40.6506202792402,38.5505882352942,37.5505729762723,38.1505821316855,39.4506019684139,40.6506202792402,40.7506218051424,39.8506080720227,38.950594338903,39.0505958648052,40.2506141756314,42.0506416418708,43.1506584267949,42.8506538490884,41.3506309605555,40.0506111238271,40.4506172274358,43.0506569008927,46.9507164110781,50.3507682917526,51.6507881284811,50.1507652399482,47.1507194628825,44.5506797894256,43.8506691081103,45.3506919966431,47.8507301441979,49.6507576104373,49.2507515068285,46.850714885176,43.4506630045015,41.1506279087511,40.8506233310446,42.8506538490884,45.8506996261541,48.3507377737088,49.4507545586329,49.0507484550241,47.9507316701,47.1507194628825,47.4507240405891,48.8507454032197,50.7507743953614,52.3507988097964,52.8508064393073,51.9507927061876,50.050763714046,47.4507240405891,45.3506919966431,44.4506782635234,45.2506904707409,47.6507270923935,50.3507682917526,52.2507972838942,52.150795757992,50.2507667658504,47.4507240405891,45.2506904707409,44.6506813153278,45.8506996261541,47.6507270923935,49.0507484550241,48.9507469291219,47.3507225146869,45.3506919966431,43.8506691081103,43.8506691081103,45.5506950484475,48.3507377737088,50.9507774471657,52.2507972838942,51.6507881284811,49.5507560845351,47.2507209887847,46.0507026779584,46.4507087815672,47.9507316701,49.1507499809263,48.8507454032197,47.1507194628825,45.6506965743497,45.7506981002519,47.9507316701,50.9507774471657,52.5508018616008,51.4507850766767,48.1507347219044,44.9506858930344,44.3506767376212,46.5507103074694,49.7507591363395,51.1507804989701,49.2507515068285,44.9506858930344,41.2506294346533,40.4506172274358,42.650650797284,45.7506981002519,46.9507164110781,44.9506858930344,41.1506279087511,38.3505851834898,38.6505897611964,41.9506401159687,46.0507026779584,48.450739299611,48.3507377737088,46.5507103074694,44.75068284123,44.250675211719,44.75068284123,45.5506950484475,45.9507011520562,46.0507026779584,46.2507057297628,46.9507164110781,47.7507286182957,47.8507301441979,47.0507179369803,46.1507042038606,45.9507011520562,47.2507209887847,49.2507515068285,50.6507728694592,50.3507682917526,48.5507408255132,46.7507133592738,46.5507103074694,48.6507423514154,51.9507927061876,54.5508323796446,54.9508384832533,52.7508049134051,49.2507515068285,45.9507011520562,44.250675211719,44.0506721599146,44.5506797894256,44.9506858930344,44.75068284123,44.1506736858168,43.6506660563059,43.6506660563059,44.1506736858168,44.8506843671322,45.2506904707409,45.0506874189365,44.250675211719,43.0506569008927,41.9506401159687,41.4506324864577,41.9506401159687,43.2506599526971,44.6506813153278,45.4506935225453,45.0506874189365,43.8506691081103,42.3506462195774,41.2506294346533,40.6506202792402,40.3506157015336,39.6506050202183,38.5505882352942,37.5505729762723,37.1505668726636,37.6505745021745,38.7505912870986,39.6506050202183,40.0506111238271,40.2506141756314,40.8506233310446,42.4506477454796,44.5506797894256,46.1507042038606,45.7506981002519,43.0506569008927,38.8505928130008,34.6505287251088,32.0504890516519,31.7504844739453,33.4505104142825,36.350554665446,39.0505958648052,40.6506202792402,40.550618753338,38.5505882352942,35.250537880522,31.8504859998475,29.8504554818037,30.2504615854125,33.2505073624782,37.8505775539789,42.2506446936752,44.75068284123,44.9506858930344,43.5506645304037,42.0506416418708,41.4506324864577,42.0506416418708,43.2506599526971,44.1506736858168,44.5506797894256,44.8506843671322,45.5506950484475,46.6507118333716,47.6507270923935,47.4507240405891,45.8506996261541,43.4506630045015,41.6506355382621,41.5506340123599,43.4506630045015,45.6506965743497,46.4507087815672,44.6506813153278,40.6506202792402,36.4505561913482,34.2505226215001,34.8505317769132,37.3505699244679,39.6506050202183,40.0506111238271,37.8505775539789,34.0505195696957,30.4504646372168,28.7504386968796,29.4504493781949,32.0504890516519,35.1505363546198,37.4505714503701,38.0505806057833,36.850562294957,34.3505241474022,31.7504844739453,29.9504570077059,29.7504539559015,30.550466163119,31.3504783703366,30.8504707408256,28.6504371709774,25.3503868162052,22.8503486686504,22.6503456168461,25.1503837644008,28.950441748684,31.9504875257497,32.4504951552606,30.2504615854125,26.5504051270314,23.5503593499658,22.5503440909439,23.9503654535745,26.4504036011293,28.4504341191731,28.5504356450752,26.6504066529336,23.9503654535745,21.550328831922,20.7503166247044,21.4503273060198,23.150353246357,24.750377660792,25.7503929198139,25.8503944457161,25.5503898680096,25.250385290303,24.9503807125964,24.3503715571833,23.0503517204548,21.1503227283132,19.450296787976,19.0502906843672,20.3503105210957,22.9503501945526,25.250385290303,25.7503929198139,23.9503654535745,20.5503135729001,17.4502662699322,16.1502464332037,17.0502601663234,19.2502937361716,21.2503242542154,22.0503364614329,21.3503257801176,20.2503089951935,19.450296787976,19.5502983138782,19.8503028915847,19.7503013656826,18.5502830548563,16.4502510109103,14.2502174410621,12.9501976043337,12.7501945525293,13.4502052338446,14.2502174410621,14.5502220187687,14.3502189669643,13.7502098115512,13.150200656138,12.8501960784315,12.8501960784315,13.150200656138,13.5502067597468,13.8502113374534,13.9502128633556,13.9502128633556,14.0502143892577,14.5502220187687,15.1502311741818,15.4502357518884,14.8502265964753,13.2502021820402,11.0501686121921,9.35014267185483,8.85013504234388,10.1501548790723,12.4501899748227,14.4502204928665,14.9502281223774,13.7502098115512,11.550176241703,9.85015030136577,9.5501457236592,10.6501625085833,12.2501869230183,13.4502052338446,13.7502098115512,13.2502021820402,12.5501915007249,11.8501808194096,11.2501716639964,10.5501609826811,9.5501457236592,9.05013809414826,9.5501457236592,11.7501792935074,15.5502372777906,20.7503166247044,26.4504036011293,32.4504951552606,38.5505882352942,44.9506858930344,51.8507911802854,59.550908674754,67.7510337987336,76.2511635004197,84.0512825207905,90.2513771267263,93.4514259555963,92.9514183260854,88.5513511863891,81.0512367437248,71.3510887312124,60.2509193560694,48.2507362478066,35.4505409323263,21.7503318837263,7.55011520561541,-6.25009536888676,-18.8502876325627,-29.1504448004882,-36.5505577172502,-40.5506187533378,-40.8506233310444,-38.0505806057831,-32.8505012588692,-26.6504066529335,-20.6503150988021,-15.6502388036926,-11.5501762417028,-7.65011673151742,-3.35005111772326,1.35002059967965,5.65008621347381,8.55013046463731,9.45014419775702,9.05013809414826,8.45012893873512,8.95013656824607,10.5501609826811,12.5501915007249,13.7502098115512,13.650208285649,12.3501884489205,10.6501625085833,9.15013962005045,8.15012436102855,7.15010910200665,5.750087739376,4.05006179903877,2.55003891050593,2.25003433279936,3.65005569543001,6.05009231708257,8.55013046463731,9.85015030136577,9.25014114595264,7.25011062790884,4.7500724803541,2.95004501411469,2.45003738460374,3.45005264362563,5.15007858396286,6.85010452430008,7.95012130922417,8.15012436102855,7.35011215381103,5.95009079118038,4.45006790264753,3.35005111772344,3.15004806591907,3.7500572213322,4.85007400625629,5.85008926527819,6.15009384298476,5.55008468757162,4.65007095445191,3.95006027313658,4.15006332494096,5.15007858396286,6.6501014724957,8.25012588693074,9.65014724956139,10.9501670862899,12.4501899748227,14.1502159151599,15.250232700084,15.1502311741818,13.4502052338446,10.9501670862899,9.05013809414826,8.95013656824607,11.1501701380942,14.5502220187687,17.4502662699322,18.2502784771497,16.8502571145191,14.0502143892577,11.2501716639964,9.75014877546358,9.35014267185483,9.65014724956139,9.95015182726796,9.95015182726796,9.85015030136577,9.95015182726796,9.85015030136577,9.35014267185483,7.85011978332198,5.55008468757162,3.45005264362563,2.35003585870155,2.45003738460374,3.25004959182126,3.65005569543001,3.15004806591907,1.8500282291906,0.850012970168703,1.55002365148403,4.15006332494096,7.95012130922417,11.2501716639964,12.6501930266271,11.550176241703,8.75013351644169,5.65008621347381,3.85005874723439,3.95006027313658,5.55008468757162,7.6501167315176,9.15013962005045,9.25014114595264,8.25012588693074,6.95010605020227,6.25009536888695,6.75010299839789,8.25012588693074,9.95015182726796,11.0501686121921,11.1501701380942,10.2501564049745,9.25014114595264,8.55013046463731,8.35012741283293,8.15012436102855,7.25011062790884,5.45008316166943,3.25004959182126,1.75002670328841,1.45002212558184,2.55003891050593,3.95006027313658,4.85007400625629,4.55006942854972,3.95006027313658,4.15006332494096,5.95009079118038,8.85013504234388,11.6501777676052,12.4501899748227,10.8501655603877,7.35011215381103,3.85005874723439,2.35003585870155,3.25004959182126,6.15009384298476,9.5501457236592,11.8501808194096,12.3501884489205,11.550176241703,10.0501533531702,8.6501319905395,7.75011825741979,7.45011367971322,7.55011520561541,7.95012130922417,8.6501319905395,9.35014267185483,9.75014877546358,9.5501457236592,8.35012741283293,6.25009536888695,3.7500572213322,1.55002365148403,0.150002288853375,-0.0500007629510041,0.750011444266513,2.15003280689717,3.65005569543001,4.95007553215848,5.65008621347381,5.55008468757162,4.45006790264753,2.75004196231031,0.950014496070893,0.250003814755565,1.15001754787527,3.55005416952782,6.15009384298476,7.35011215381103,6.25009536888695,3.05004654001688,-0.750011444266332,-3.35005111772326,-3.65005569542983,-2.25003433279918,-0.650009918364142,-0.450006866559763,-2.15003280689699,-4.9500755321583,-7.35011215381085,-8.35012741283275,-7.75011825741961,-6.55009994659333,-5.55008468757144,-4.9500755321583,-4.35006637674516,-3.15004806591888,-1.25001907377728,0.550008392462134,1.45002212558184,0.950014496070893,-0.650009918364142,-2.35003585870137,-3.45005264362545,-3.55005416952764,-3.45005264362545,-3.9500602731364,-5.55008468757144,-7.95012130922399,-10.05015335317,-10.9501670862897,-10.2501564049744,-8.55013046463713,-6.8501045242999,-6.25009536888676,-6.75010299839771,-7.8501197833218,-8.35012741283275,-7.8501197833218,-6.45009842069114,-5.25008010986487,-5.45008316166925,-7.35011215381085,-10.1501548790722,-12.4501899748225,-13.0501991302357,-11.7501792935072,-9.25014114595245,-6.8501045242999,-5.65008621347363,-5.65008621347363,-6.35009689478895,-6.8501045242999,-6.8501045242999,-6.45009842069114,-6.15009384298457,-6.35009689478895,-6.95010605020209,-7.35011215381085,-7.15010910200647,-6.35009689478895,-5.25008010986487,-4.75007248035392,-5.05007705806049,-5.55008468757144,-5.45008316166925,-4.15006332494078,-1.65002517738604,0.850012970168703,1.95002975509279,0.750011444266513,-2.0500312809948,-4.65007095445173,-5.45008316166925,-3.85005874723421,-0.950014496070711,1.25001907377746,1.15001754787527,-1.25001907377728,-4.15006332494078,-5.65008621347363,-4.35006637674516,-0.950014496070711,2.55003891050593,3.95006027313658,2.25003433279936,-1.85002822919042,-6.15009384298457,-8.75013351644151,-8.65013199053932,-6.55009994659333,-4.15006332494078,-3.15004806591888,-4.35006637674516,-6.95010605020209,-8.95013656824588,-8.95013656824588,-6.45009842069114,-2.65004043640794,0.550008392462134,1.45002212558184,-0.150002288853194,-2.9500450141145,-4.9500755321583,-4.65007095445173,-2.25003433279918,0.850012970168703,2.75004196231031,2.35003585870155,0.350005340657755,-1.75002670328823,-2.45003738460356,-0.950014496070711,1.8500282291906,4.55006942854972,6.05009231708257,6.15009384298476,5.45008316166943,4.55006942854972,3.95006027313658,3.35005111772344,2.05003128099498,0.0500007629511856,-2.45003738460356,-4.45006790264735,-5.05007705806049,-3.85005874723421,-1.25001907377728,1.75002670328841,4.15006332494096,5.05007705806067,4.25006485084315,2.35003585870155,0.250003814755565,-1.0500160219729,-1.15001754787509,-0.250003814755383,0.850012970168703,1.45002212558184,1.05001602197308,-0.150002288853194,-1.65002517738604,-2.65004043640794,-3.05004654001669,-3.05004654001669,-3.45005264362545,-4.45006790264735,-5.65008621347363,-6.35009689478895,-5.85008926527801,-4.05006179903859,-2.0500312809948,-1.15001754787509,-2.35003585870137,-5.35008163576706,-9.05013809414807,-12.0501838712138,-13.5502067597466,-13.6502082856488,-13.1502006561379,-12.6501930266269,-12.4501899748225,-12.150185397116,-11.4501747158006,-10.5501609826809,-9.85015030136559,-9.95015182726778,-10.9501670862897,-12.4501899748225,-13.8502113374532,-14.7502250705729,-15.350234225986,-15.850241855497,-16.4502510109101,-16.9502586404211,-16.7502555886167,-15.5502372777904,-13.5502067597466,-11.3501731898984,-10.1501548790722,-10.5501609826809,-12.4501899748225,-15.0502296482795,-16.9502586404211,-16.9502586404211,-14.9502281223773,-11.5501762417028,-8.25012588693056,-6.65010147249552,-7.35011215381085,-10.2501564049744,-14.0502143892576,-17.1502616922254,-18.6502845807583,-18.3502800030517,-17.0502601663232,-15.7502403295948,-15.0502296482795,-15.0502296482795,-15.1502311741816,-15.0502296482795,-14.3502189669641,-13.5502067597466,-12.9501976043335,-12.8501960784313,-13.0501991302357,-13.0501991302357,-12.3501884489203,-11.0501686121919,-9.7501487754634,-8.95013656824588,-9.05013809414807,-10.1501548790722,-11.5501762417028,-12.6501930266269,-13.1502006561379,-13.1502006561379,-12.9501976043335,-12.4501899748225,-11.650177767605,-10.5501609826809,-9.35014267185464,-8.55013046463713,-8.8501350423437,-10.1501548790722,-11.7501792935072,-12.6501930266269,-12.150185397116,-10.4501594567787,-8.8501350423437,-8.65013199053932,-10.2501564049744,-12.6501930266269,-14.2502174410619,-13.750209811551,-11.1501701380941,-7.95012130922399,-6.05009231708238,-6.45009842069114,-9.05013809414807,-12.2501869230181,-14.3502189669641,-14.5502220187685,-13.3502037079422,-12.0501838712138,-12.0501838712138,-13.5502067597466,-15.850241855497,-17.5502677958342,-17.450266269932,-15.2502327000838,-12.0501838712138,-9.95015182726778,-10.1501548790722,-13.0501991302357,-17.1502616922254,-20.3503105210955,-20.4503120469977,-17.1502616922254,-11.7501792935072,-6.65010147249552,-3.45005264362545,-2.55003891050575,-2.25003433279918,-0.0500007629510041,6.05009231708257,15.9502433813993,28.1504295414665,40.4506172274358,50.9507774471657,59.3509056229497,66.1510093842986,71.7510948348212,75.851157396811,77.5511833371482,75.2511482413978,68.3510429541467,57.4508766308081,43.9506706340125,29.6504524299993,15.9502433813993,3.15004806591907,-9.25014114595245,-21.5503288319218,-33.5505119401845,-44.4506782635232,-53.0508094911115,-58.2508888380254,-59.9509147783626,-58.1508873121232,-53.7508201724269,-47.3507225146867,-40.0506111238269,-32.750499732967,-26.2504005493247,-21.5503288319218,-18.6502845807583,-17.2502632181276,-16.5502525368123,-15.6502388036926,-14.1502159151597,-11.8501808194094,-9.25014114595245,-6.95010605020209,-5.25008010986487,-4.35006637674516,-4.15006332494078,-4.45006790264735,-5.15007858396268,-6.05009231708238,-7.05010757610428,-7.95012130922399,-8.75013351644151,-9.55014572365902,-10.4501594567787,-11.4501747158006,-12.4501899748225,-13.0501991302357,-12.7501945525291,-11.650177767605,-9.85015030136559,-8.25012588693056,-7.25011062790866,-7.25011062790866,-7.95012130922399,-8.95013656824588,-9.65014724956121,-9.7501487754634,-9.35014267185464,-8.75013351644151,-8.25012588693056,-7.95012130922399,-7.8501197833218,-7.8501197833218,-8.05012283512618,-8.65013199053932,-9.65014724956121,-10.4501594567787,-10.4501594567787,-9.15013962005026,-6.65010147249552,-3.9500602731364,-2.25003433279918,-2.55003891050575,-4.75007248035392,-7.55011520561523,-9.45014419775683,-9.65014724956121,-8.35012741283275,-6.65010147249552,-5.55008468757144,-5.65008621347363,-6.25009536888676,-6.65010147249552,-6.35009689478895,-5.65008621347363,-5.15007858396268,-5.35008163576706,-5.75008773937582,-5.85008926527801,-5.05007705806049,-3.35005111772326,-1.85002822919042,-1.35002059967947,-2.35003585870137,-4.25006485084297,-6.25009536888676,-7.55011520561523,-8.25012588693056,-8.65013199053932,-9.35014267185464,-9.95015182726778,-10.05015335317,-8.95013656824588,-6.65010147249552,-3.65005569542983,-1.25001907377728,-0.350005340657573,-1.15001754787509,-3.25004959182107,-5.85008926527801,-8.05012283512618,-9.25014114595245,-9.25014114595245,-7.95012130922399,-5.9500907911802,-4.05006179903859,-3.15004806591888,-3.65005569542983,-5.45008316166925,-7.75011825741961,-9.45014419775683,-9.85015030136559,-9.05013809414807,-7.75011825741961,-6.65010147249552,-5.85008926527801,-5.25008010986487,-4.55006942854954,-3.75005722133202,-3.65005569542983,-4.55006942854954,-6.55009994659333,-8.55013046463713,-9.55014572365902,-8.75013351644151,-6.55009994659333,-4.25006485084297,-3.15004806591888,-3.75005722133202,-5.25008010986487,-6.55009994659333,-6.55009994659333,-5.15007858396268,-3.05004654001669,-1.35002059967947,-0.850012970168522,-1.75002670328823,-3.65005569542983,-5.85008926527801,-7.55011520561523,-8.05012283512618,-7.15010910200647,-5.35008163576706,-3.45005264362545,-2.75004196231013,-3.9500602731364,-6.55009994659333,-9.7501487754634,-11.9501823453116,-12.3501884489203,-11.1501701380941,-9.35014267185464,-8.15012436102837,-8.15012436102837,-9.15013962005026,-10.3501579308765,-11.0501686121919,-10.6501625085831,-9.65014724956121,-8.55013046463713,-8.25012588693056,-8.95013656824588,-10.5501609826809,-12.4501899748225,-13.5502067597466,-13.25020218204,-11.4501747158006,-8.8501350423437,-6.65010147249552,-5.85008926527801,-6.35009689478895,-7.55011520561523,-8.25012588693056,-7.8501197833218,-6.95010605020209,-6.8501045242999,-8.35012741283275,-11.3501731898984,-14.3502189669641,-15.7502403295948,-14.7502250705729,-11.8501808194094,-8.8501350423437,-7.15010910200647,-7.15010910200647,-7.95012130922399,-8.25012588693056,-7.45011367971304,-6.25009536888676,-6.05009231708238,-7.95012130922399,-11.5501762417028,-15.6502388036926,-18.4502815289539,-19.050290684367,-17.450266269932,-14.6502235446707,-11.9501823453116,-10.05015335317,-9.25014114595245,-9.7501487754634,-11.1501701380941,-13.1502006561379,-15.0502296482795,-16.4502510109101,-17.0502601663232,-17.0502601663232,-16.5502525368123,-16.1502464332035,-15.6502388036926,-14.6502235446707,-12.7501945525291,-10.05015335317,-7.05010757610428,-4.85007400625611,-4.15006332494078,-4.85007400625611,-6.35009689478895,-7.45011367971304,-7.8501197833218,-7.65011673151742,-7.25011062790866,-7.45011367971304,-8.45012893873494,-9.65014724956121,-10.4501594567787,-10.2501564049744,-8.8501350423437,-6.8501045242999,-4.85007400625611,-3.45005264362545,-3.25004959182107,-4.25006485084297,-6.15009384298457,-8.55013046463713,-10.9501670862897,-12.9501976043335,-13.8502113374532,-13.4502052338444,-11.9501823453116,-9.7501487754634,-7.65011673151742,-6.55009994659333,-6.65010147249552,-7.8501197833218,-9.15013962005026,-9.7501487754634,-9.35014267185464,-8.05012283512618,-6.65010147249552,-5.75008773937582,-5.75008773937582,-6.35009689478895,-7.35011215381085,-8.65013199053932,-9.85015030136559,-10.8501655603875,-11.2501716639962,-10.6501625085831,-9.15013962005026,-6.8501045242999,-4.55006942854954,-2.65004043640794,-1.45002212558166,-0.750011444266332,-0.450006866559763,-0.750011444266332,-1.85002822919042,-3.75005722133202,-6.05009231708238,-7.75011825741961,-7.95012130922399,-6.45009842069114,-4.35006637674516,-2.85004348821231,-3.05004654001669,-5.05007705806049,-7.8501197833218,-9.95015182726778,-10.3501579308765,-8.95013656824588,-6.65010147249552,-4.55006942854954,-3.35005111772326,-3.15004806591888,-3.75005722133202,-4.55006942854954,-4.85007400625611,-4.45006790264735,-3.25004959182107,-1.85002822919042,-0.450006866559763,0.350005340657755,0.450006866559944,0.0500007629511856,-0.350005340657573,-0.450006866559763,-0.250003814755383,-0.0500007629510041,-0.0500007629510041,-0.450006866559763,-0.950014496070711,-1.15001754787509,-0.950014496070711,-0.350005340657573,0.150002288853375,0.150002288853375,-0.350005340657573,-1.35002059967947,-2.25003433279918,-2.85004348821231,-2.9500450141145,-2.75004196231013,-2.55003891050575,-2.65004043640794,-2.75004196231013,-2.9500450141145,-3.05004654001669,-3.15004806591888,-3.25004959182107,-3.65005569542983,-4.35006637674516,-5.15007858396268,-5.85008926527801,-6.15009384298457,-6.15009384298457,-6.05009231708238,-5.9500907911802,-5.9500907911802,-5.9500907911802,-5.55008468757144,-4.55006942854954,-3.25004959182107,-2.25003433279918,-2.25003433279918,-3.85005874723421,-6.55009994659333,-9.65014724956121,-11.650177767605,-11.7501792935072,-9.7501487754634,-6.65010147249552,-3.85005874723421,-2.45003738460356,-2.9500450141145,-4.55006942854954,-6.15009384298457,-6.8501045242999,-6.65010147249552,-6.15009384298457,-6.15009384298457,-6.65010147249552,-7.35011215381085,-7.35011215381085,-6.25009536888676,-4.65007095445173,-3.45005264362545,-3.55005416952764,-5.05007705806049,-6.8501045242999,-7.8501197833218,-7.45011367971304,-6.05009231708238,-4.75007248035392,-4.75007248035392,-6.55009994659333,-9.45014419775683,-12.4501899748225,-14.5502220187685,-15.5502372777904,-15.4502357518882,-14.8502265964751,-13.9502128633554,-12.7501945525291,-11.2501716639962,-9.65014724956121,-8.55013046463713,-8.55013046463713,-9.55014572365902,-11.4501747158006,-13.25020218204,-14.2502174410619,-14.2502174410619,-13.3502037079422,-12.0501838712138,-10.9501670862897,-10.05015335317,-9.25014114595245,-8.35012741283275,-7.55011520561523,-7.15010910200647,-7.95012130922399,-9.85015030136559,-12.4501899748225,-14.7502250705729,-15.7502403295948,-15.350234225986,-13.8502113374532,-12.2501869230181,-11.2501716639962,-10.9501670862897,-10.9501670862897,-10.4501594567787,-9.55014572365902,-8.75013351644151,-8.55013046463713,-9.25014114595245,-10.5501609826809,-11.650177767605,-11.8501808194094,-10.8501655603875,-9.35014267185464,-8.15012436102837,-7.95012130922399,-8.8501350423437,-10.2501564049744,-11.1501701380941,-10.9501670862897,-9.45014419775683,-7.35011215381085,-5.45008316166925,-4.85007400625611,-6.05009231708238,-8.65013199053932,-11.7501792935072,-14.1502159151597,-14.9502281223773,-13.9502128633554,-11.5501762417028,-8.65013199053932,-6.05009231708238,-4.45006790264735,-4.15006332494078,-5.45008316166925,-8.25012588693056,-11.9501823453116,-15.350234225986,-17.0502601663232,-16.2502479591057,-13.3502037079422,-9.95015182726778,-7.8501197833218,-7.95012130922399,-9.35014267185464,-10.1501548790722,-8.55013046463713,-3.9500602731364,2.65004043640812,9.35014267185483,15.0502296482796,19.8503028915847,25.1503837644008,32.4504951552606,41.8506385900665,52.3507988097964,61.7509422446022,68.0510383764402,70.4510749980927,69.1510551613643,64.8509895475701,58.6508949416343,50.6507728694592,40.7506218051424,28.7504386968796,14.5502220187687,-1.25001907377728,-17.450266269932,-32.2504921034561,-43.7506675822079,-50.9507774471655,-53.850821698329,-53.6508186465247,-51.9507927061874,-50.0507637140458,-48.6507423514152,-47.3507225146867,-45.3506919966429,-41.9506401159685,-36.950563820859,-30.650467689021,-23.9503654535743,-17.7502708476386,-12.8501960784313,-9.7501487754634,-8.55013046463713,-8.65013199053932,-9.35014267185464,-9.65014724956121,-9.25014114595245,-8.35012741283275,-7.55011520561523,-7.45011367971304,-8.25012588693056,-9.65014724956121,-10.9501670862897,-11.5501762417028,-10.9501670862897,-9.55014572365902,-7.65011673151742,-6.05009231708238,-5.45008316166925,-6.05009231708238,-7.8501197833218,-10.1501548790722,-11.9501823453116,-12.4501899748225,-11.0501686121919,-8.45012893873494,-5.55008468757144,-3.35005111772326,-2.55003891050575,-3.15004806591888,-4.45006790264735,-5.85008926527801,-6.75010299839771,-6.95010605020209,-6.45009842069114,-5.65008621347363,-4.85007400625611,-4.05006179903859,-3.45005264362545,-2.9500450141145,-2.55003891050575,-2.0500312809948,-1.75002670328823,-1.85002822919042,-2.45003738460356,-3.35005111772326,-3.9500602731364,-3.75005722133202,-2.85004348821231,-1.75002670328823,-1.15001754787509,-1.85002822919042,-3.45005264362545,-5.25008010986487,-6.25009536888676,-6.25009536888676,-5.55008468757144,-5.15007858396268,-5.45008316166925,-6.15009384298457,-6.35009689478895,-5.15007858396268,-2.65004043640794,-0.150002288853194,1.05001602197308,0.150002288853375,-2.0500312809948,-3.65005569542983,-3.05004654001669,0.0500007629511856,4.15006332494096,7.05010757610446,6.95010605020227,3.85005874723439,-0.450006866559763,-3.55005416952764,-4.15006332494078,-2.35003585870137,-0.0500007629510041,1.05001602197308,0.250003814755565,-1.55002365148385,-2.9500450141145,-2.55003891050575,-0.650009918364142,1.65002517738622,2.8500434882125,2.35003585870155,0.550008392462134,-1.35002059967947,-2.35003585870137,-2.0500312809948,-0.950014496070711,0.150002288853375,0.850012970168703,0.750011444266513,0.0500007629511856,-1.15001754787509,-2.65004043640794,-4.35006637674516,-5.45008316166925,-5.25008010986487,-3.35005111772326,-0.0500007629510041,3.65005569543001,6.05009231708257,6.35009689478913,4.55006942854972,2.15003280689717,0.550008392462134,0.750011444266513,2.65004043640812,5.15007858396286,6.95010605020227,6.95010605020227,5.25008010986505,2.25003433279936,-1.0500160219729,-3.45005264362545,-4.45006790264735,-3.65005569542983,-1.25001907377728,1.75002670328841,4.35006637674534,5.65008621347381,5.55008468757162,4.35006637674534,2.8500434882125,1.65002517738622,0.950014496070893,0.350005340657755,-0.150002288853194,-0.450006866559763,-0.250003814755383,0.850012970168703,2.45003738460374,4.15006332494096,5.05007705806067,5.35008163576724,5.55008468757162,6.35009689478913,7.85011978332198,9.25014114595264,9.35014267185483,7.6501167315176,4.55006942854972,1.75002670328841,0.850012970168703,2.25003433279936,4.95007553215848,6.95010605020227,7.05010757610446,5.15007858396286,2.8500434882125,2.05003128099498,3.55005416952782,6.75010299839789,9.35014267185483,9.65014724956139,7.25011062790884,3.7500572213322,1.25001907377746,1.45002212558184,4.25006485084315,8.05012283512636,10.8501655603877,11.550176241703,10.4501594567789,8.85013504234388,7.95012130922417,8.15012436102855,9.25014114595264,10.1501548790723,10.1501548790723,9.25014114595264,7.85011978332198,6.55009994659352,5.45008316166943,4.45006790264753,3.05004654001688,1.05001602197308,-1.15001754787509,-2.65004043640794,-2.45003738460356,-0.350005340657573,2.65004043640812,4.65007095445191,4.05006179903877,0.750011444266513,-3.75005722133202,-6.95010605020209,-6.75010299839771,-2.75004196231013,3.05004654001688,7.85011978332198,9.45014419775702,7.95012130922417,4.95007553215848,2.75004196231031,2.75004196231031,4.65007095445191,7.05010757610446,8.35012741283293,8.15012436102855,7.05010757610446,6.05009231708257,5.65008621347381,5.85008926527819,6.15009384298476,6.15009384298476,5.95009079118038,5.55008468757162,4.95007553215848,3.95006027313658,2.95004501411469,2.55003891050593,3.45005264362563,6.05009231708257,10.0501533531702,13.7502098115512,15.5502372777906,14.6502235446709,11.6501777676052,8.35012741283293,6.85010452430008,8.15012436102855,11.550176241703,14.9502281223774,16.4502510109103,15.0502296482796,11.6501777676052,8.35012741283293,7.25011062790884,9.25014114595264,13.4502052338446,17.8502723735409,20.2503089951935,19.8503028915847,17.1502616922256,13.9502128633556,12.2501869230183,12.9501976043337,15.4502357518884,18.1502769512475,19.6502998397804,18.950289158465,16.6502540627147,14.1502159151599,12.8501960784315,13.3502037079424,15.250232700084,17.4502662699322,18.8502876325628,19.2502937361716,19.0502906843672,19.1502922102694,19.8503028915847,20.8503181506066,21.6503303578242,21.550328831922,20.5503135729001,19.3502952620738,18.6502845807585,19.1502922102694,20.4503120469979,21.6503303578242,22.1503379873351,22.0503364614329,22.1503379873351,23.2503547722592,25.5503898680096,28.1504295414665,29.5504509040971,28.5504356450752,25.4503883421074,21.8503334096285,19.9503044174869,21.050321202411,24.8503791866942,29.5504509040971,32.9505027847716,33.3505088883803,31.05047379263,27.4504188601512,24.3503715571833,23.0503517204548,23.5503593499658,25.1503837644008,26.850409704738,28.1504295414665,29.2504463263906,30.6504676890212,32.4504951552606,34.4505256733044,35.9505485618373,36.6505592431526,36.4505561913482,35.9505485618373,35.6505439841307,36.1505516136417,37.1505668726636,37.7505760280767,37.3505699244679,35.5505424582285,33.3505088883803,31.7504844739453,32.0504890516519,34.2505226215001,37.3505699244679,39.7506065461205,40.0506111238271,37.9505790798811,34.4505256733044,31.05047379263,29.1504448004884,29.2504463263906,30.8504707408256,33.150505836576,35.0505348287176,35.8505470359351,35.4505409323263,33.9505180437935,31.6504829480431,29.3504478522928,27.7504234378577,27.350417334249,28.2504310673687,29.8504554818037,31.2504768444344,31.5504814221409,30.550466163119,28.7504386968796,27.0504127565424,25.9503959716183,25.7503929198139,25.8503944457161,25.8503944457161,25.8503944457161,25.9503959716183,26.850409704738,28.3504325932709,29.8504554818037,30.6504676890212,30.3504631113147,29.2504463263906,28.4504341191731,28.8504402227818,30.550466163119,32.4504951552606,33.0505043106738,31.4504798962387,27.7504234378577,23.4503578240636,20.3503105210957,19.9503044174869,22.2503395132373,26.2504005493249,30.2504615854125,33.0505043106738,34.3505241474022,34.2505226215001,33.5505119401847,32.3504936293585,30.9504722667278,29.3504478522928,28.1504295414665,27.8504249637599,29.0504432745862,31.5504814221409,34.4505256733044,36.7505607690548,37.5505729762723,36.9505638208592,35.7505455100329,35.250537880522,35.8505470359351,37.2505683985657,38.3505851834898,38.2505836575876,36.7505607690548,34.750530251011,33.4505104142825,33.6505134660869,34.8505317769132,35.9505485618373,35.7505455100329,33.9505180437935,31.2504768444344,28.950441748684,28.2504310673687,29.4504493781949,31.9504875257497,34.3505241474022,35.8505470359351,36.1505516136417,35.7505455100329,35.250537880522,35.1505363546198,35.250537880522,35.4505409323263,35.8505470359351,36.350554665446,37.3505699244679,38.3505851834898,38.6505897611964,37.5505729762723,34.750530251011,31.1504753185322,28.4504341191731,27.8504249637599,29.8504554818037,33.4505104142825,36.850562294957,38.6505897611964,38.1505821316855,36.350554665446,34.5505271992066,33.9505180437935,34.750530251011,35.9505485618373,36.4505561913482,35.3505394064241,32.9505027847716,30.0504585336081,28.1504295414665,28.0504280155643,30.2504615854125,34.1505210955979,38.7505912870986,43.2506599526971,47.1507194628825,50.3507682917526,53.2508125429161,56.6508644235905,61.2509346150913,67.7510337987336,76.5511680781263,87.3513328755628,99.051511406119,109.751674677653,117.35179064622,120.351836423285,118.451807431144,112.551717402915,104.351592278935,95.0514503700314,85.1512993057146,74.2511329823759,61.9509452964066,48.2507362478066,33.9505180437935,20.5503135729001,9.35014267185483,1.15001754787527,-4.05006179903859,-6.35009689478895,-6.25009536888676,-3.9500602731364,0.0500007629511856,5.35008163576724,11.2501716639964,17.1502616922256,22.5503440909439,27.2504158083468,31.2504768444344,34.4505256733044,37.1505668726636,39.5506034943161,41.7506370641643,43.7506675822081,45.6506965743497,47.3507225146869,48.7507438773176,49.7507591363395,50.2507667658504,49.8507606622416,48.5507408255132,46.850714885176,45.2506904707409,44.5506797894256,45.0506874189365,46.1507042038606,46.850714885176,46.1507042038606,44.3506767376212,42.3506462195774,41.8506385900665,43.2506599526971,46.0507026779584,48.3507377737088,48.8507454032197,47.1507194628825,44.4506782635234,42.650650797284,42.9506553749906,45.4506935225453,48.5507408255132,50.8507759212635,51.3507835507745,50.3507682917526,49.1507499809263,48.8507454032197,49.6507576104373,51.1507804989701,52.0507942320898,51.7507896543832,50.2507667658504,48.8507454032197,48.7507438773176,50.8507759212635,54.5508323796446,58.3508903639278,60.3509208819716,59.2509040970475,55.3508445868621,50.2507667658504,45.8506996261541,43.8506691081103,44.4506782635234,47.1507194628825,50.3507682917526,53.1508110170139,54.9508384832533,55.7508506904708,56.1508567940796,56.350859845884,56.7508659494927,57.2508735790037,57.7508812085146,58.1508873121234,58.2508888380256,57.950884260319,57.0508705271993,55.850852216373,54.5508323796446,53.3508140688183,52.5508018616008,52.150795757992,51.9507927061876,52.150795757992,52.4508003356986,52.9508079652095,53.3508140688183,53.4508155947205,53.0508094911117,51.9507927061876,50.3507682917526,48.450739299611,46.6507118333716,45.2506904707409,44.4506782635234,44.250675211719,44.75068284123,45.8506996261541,47.5507255664913,49.4507545586329,51.0507789730679,51.9507927061876,51.9507927061876,51.2507820248723,50.050763714046,48.9507469291219,48.1507347219044,47.6507270923935,47.4507240405891,47.5507255664913,47.8507301441979,48.3507377737088,49.0507484550241,49.5507560845351,49.4507545586329,48.6507423514154,47.4507240405891,46.5507103074694,46.5507103074694,47.8507301441979,50.2507667658504,52.9508079652095,55.1508415350577,56.350859845884,56.6508644235905,56.4508613717862,56.7508659494927,58.1508873121234,60.4509224078738,63.1509636072329,65.1509941252767,65.7510032806898,64.7509880216679,62.8509590295263,60.7509269855803,59.3509056229497,58.8508979934387,59.0509010452431,59.550908674754,60.050916304265,60.4509224078738,61.1509330891891,62.150948348211,63.750972762646,65.350997177081,66.4510139620051,66.4510139620051,65.0509925993745,62.3509514000154,59.3509056229497,57.1508720531015,56.5508628976884,57.7508812085146,60.050916304265,62.4509529259175,63.9509758144504,64.5509849698635,64.6509864957657,64.9509910734723,65.4509987029832,65.6510017547876,64.4509834439613,61.4509376668956,57.5508781567102,54.250827801938,53.2508125429161,55.5508476386665,60.1509178301672,64.9509910734723,67.951036850538,68.0510383764402,65.5510002288854,62.2509498741132,60.050916304265,59.9509147783628,61.5509391927978,63.750972762646,65.0509925993745,64.7509880216679,63.0509620813307,61.1509330891891,60.1509178301672,60.8509285114825,62.9509605554285,65.350997177081,67.1510246433205,67.3510276951248,65.851004806592,63.4509681849394,60.8509285114825,59.0509010452431,58.3508903639278,58.7508964675365,59.6509102006562,60.4509224078738,60.8509285114825,61.0509315632869,61.4509376668956,62.150948348211,63.2509651331351,64.3509819180591,65.350997177081,66.3510124361029,67.6510322728314,69.3510582131686,71.151085679408,72.1511009384299,71.4510902571146,68.7510490577555,64.8509895475701,61.4509376668956,60.050916304265,61.1509330891891,64.250980392157,67.6510322728314,70.051068894484,70.9510826276037,70.7510795757993,70.4510749980927,70.6510780498971,71.4510902571146,72.1511009384299,72.4511055161365,72.1511009384299,71.651093308919,71.2510872053102,71.151085679408,71.151085679408,70.7510795757993,70.3510734721905,70.051068894484,70.3510734721905,71.151085679408,72.1511009384299,72.8511116197453,72.9511131456475,72.5511070420387,72.3511039902343,72.4511055161365,73.1511161974518,73.8511268787672,74.2511329823759,74.0511299305715,73.0511146715497,71.5510917830168,69.6510627908752,67.951036850538,67.0510231174183,67.6510322728314,69.6510627908752,72.3511039902343,74.5511375600825,74.8511421377891,73.1511161974518,70.6510780498971,69.0510536354621,69.8510658426796,73.0511146715497,76.8511726558329,79.051206225681,78.4511970702679,75.4511512932022,72.0510994125277,70.3510734721905,71.151085679408,73.751125352865,76.3511650263219,77.3511802853438,76.5511680781263,74.6511390859847,72.9511131456475,72.4511055161365,73.251117723354,74.8511421377891,76.6511696040285,78.0511909666591,78.6512001220723,78.1511924925613,76.3511650263219,73.6511238269628,70.6510780498971,68.5510460059511,68.1510399023424,69.7510643167774,72.6511085679409,75.5511528191044,77.5511833371482,78.1511924925613,77.8511879148548,77.1511772335394,76.7511711299307,76.5511680781263,76.6511696040285,76.8511726558329,77.3511802853438,78.1511924925613,79.1512077515832,79.8512184328985,80.0512214847029,79.551213855192,78.8512031738767,78.3511955443657,78.7512016479745,79.9512199588007,81.5512443732358,83.1512687876708,84.1512840466927,84.7512932021058,85.2513008316168,85.6513069352255,86.0513130388343,86.0513130388343,85.7513084611277,85.2513008316168,84.7512932021058,84.5512901503015,84.4512886243993,84.2512855725949,83.6512764171818,82.6512611581599,81.651245899138,80.9512352178226,80.8512336919204,81.0512367437248,80.7512321660183,79.7512169069964,77.9511894407569,76.1511619745175,75.2511482413978,75.9511589227131,78.0511909666591,80.7512321660183,82.5512596322577,82.4512581063555,80.1512230106051,76.6511696040285,73.6511238269628,72.5511070420387,73.8511268787672,76.5511680781263,79.1512077515832,79.9512199588007,78.5511985961701,75.851157396811,73.6511238269628,72.8511116197453,73.751125352865,75.1511467154956,75.7511558709088,74.9511436636913,72.8511116197453,70.4510749980927,68.9510521095599,68.5510460059511,68.9510521095599,69.4510597390708,69.7510643167774,69.8510658426796,70.1510704203861,70.9510826276037,72.1511009384299,73.251117723354,73.751125352865,73.4511207751584,72.3511039902343,70.9510826276037,69.8510658426796,69.551061264973,70.051068894484,71.151085679408,72.3511039902343,73.1511161974518,72.9511131456475,71.8510963607234,70.1510704203861,68.3510429541467,67.0510231174183,66.6510170138095,67.0510231174183,68.3510429541467,70.051068894484,71.8510963607234,73.251117723354,73.8511268787672,73.751125352865,73.0511146715497,72.1511009384299,71.5510917830168,71.2510872053102,70.9510826276037,70.3510734721905,69.1510551613643,67.8510353246358,67.2510261692227,67.7510337987336,69.3510582131686,71.151085679408,72.0510994125277,71.3510887312124,69.4510597390708,67.7510337987336,67.3510276951248,68.8510505836577,71.651093308919,73.9511284046694,74.5511375600825,72.9511131456475,70.051068894484,67.3510276951248,65.851004806592,65.7510032806898,66.3510124361029,66.9510215915161,67.2510261692227,67.5510307469292,68.0510383764402,69.0510536354621,70.1510704203861,70.8510811017015,70.8510811017015,70.051068894484,68.8510505836577,67.7510337987336,67.3510276951248,67.8510353246358,69.2510566872664,71.4510902571146,73.6511238269628,74.9511436636913,74.4511360341803,72.1511009384299,68.5510460059511,65.0509925993745,62.7509575036241,62.2509498741132,63.3509666590373,65.5510002288854,68.7510490577555,72.7511100938431,77.5511833371482,82.6512611581599,87.2513313496606,90.4513801785307,92.6514137483788,95.3514549477379,100.851538872358,110.851691462577,125.051908140688,140.65214618143,153.952349126421,161.352462043183,161.352462043183,154.852362859541,144.152199588007,132.152016479744,120.55183947509,109.351668574045,97.9514946211949,85.5513054093234,72.1511009384299,58.45089188983,45.6506965743497,35.0505348287176,27.1504142824446,21.9503349355307,19.450296787976,19.1502922102694,20.9503196765088,24.750377660792,29.9504570077059,36.2505531395438,42.650650797284,48.6507423514154,53.750820172427,57.7508812085146,60.7509269855803,63.0509620813307,64.8509895475701,66.2510109102007,67.2510261692227,67.951036850538,68.1510399023424,67.951036850538,67.3510276951248,66.8510200656139,66.8510200656139,67.6510322728314,69.3510582131686,71.151085679408,72.2511024643321,71.651093308919,69.2510566872664,65.6510017547876,62.6509559777219,61.5509391927978,63.2509651331351,67.1510246433205,71.651093308919,74.8511421377891,75.5511528191044,74.0511299305715,71.3510887312124,69.0510536354621,68.1510399023424,68.5510460059511,69.4510597390708,70.2510719462883,70.5510765239949,70.5510765239949,70.4510749980927,70.4510749980927,69.9510673685818,68.9510521095599,67.3510276951248,65.7510032806898,65.1509941252767,65.7510032806898,67.3510276951248,68.9510521095599,69.2510566872664,67.8510353246358,65.350997177081,63.0509620813307,62.4509529259175,64.1509788662548,67.7510337987336,71.651093308919,74.4511360341803,75.0511451895934,73.6511238269628,71.151085679408,69.0510536354621,68.0510383764402,68.0510383764402,68.3510429541467,68.0510383764402,66.5510154879073,64.5509849698635,62.7509575036241,62.150948348211,62.8509590295263,64.250980392157,65.5510002288854,66.3510124361029,66.7510185397117,67.5510307469292,69.2510566872664,71.7510948348212,74.3511345082781,75.9511589227131,76.0511604486153,74.7511406118869,72.7511100938431,71.0510841535059,69.9510673685818,69.7510643167774,69.8510658426796,70.2510719462883,70.5510765239949,70.7510795757993,70.7510795757993,70.2510719462883,69.2510566872664,67.951036850538,66.5510154879073,65.4509987029832,64.8509895475701,64.8509895475701,65.2509956511789,66.3510124361029,68.0510383764402,69.9510673685818,71.3510887312124,71.5510917830168,70.1510704203861,67.6510322728314,65.350997177081,64.4509834439613,65.350997177081,67.451029221027,69.4510597390708,70.051068894484,68.9510521095599,66.8510200656139,65.2509956511789,64.8509895475701,65.9510063324942,67.8510353246358,69.3510582131686,69.9510673685818,69.551061264973,68.6510475318533,67.7510337987336,67.1510246433205,67.0510231174183,67.0510231174183,66.9510215915161,66.5510154879073,65.7510032806898,64.4509834439613,62.7509575036241,61.2509346150913,60.5509239337759,61.1509330891891,62.8509590295263,64.8509895475701,66.0510078583964,65.7510032806898,63.9509758144504,61.5509391927978,59.6509102006562,59.2509040970475,60.3509208819716,62.2509498741132,63.750972762646,64.1509788662548,63.1509636072329,61.5509391927978,60.3509208819716,60.050916304265,60.9509300373847,62.5509544518197,64.0509773403526,64.7509880216679,64.3509819180591,63.1509636072329,61.5509391927978,60.1509178301672,59.4509071488519,60.050916304265,61.6509407187,63.9509758144504,66.0510078583964,67.1510246433205,66.6510170138095,64.7509880216679,62.2509498741132,60.3509208819716,59.9509147783628,60.9509300373847,62.8509590295263,64.250980392157,64.250980392157,62.5509544518197,59.7509117265584,56.8508674753949,55.0508400091555,54.7508354314489,55.9508537422752,57.5508781567102,58.8508979934387,58.9508995193409,58.1508873121234,57.0508705271993,56.5508628976884,56.9508690012971,58.0508857862212,58.9508995193409,58.8508979934387,57.7508812085146,56.2508583199818,55.1508415350577,55.0508400091555,55.3508445868621,55.3508445868621,54.4508308537424,52.7508049134051,51.4507850766767,51.6507881284811,53.4508155947205,56.2508583199818,58.3508903639278,58.6508949416343,56.9508690012971,53.9508232242314,51.4507850766767,50.6507728694592,51.8507911802854,54.5508323796446,57.2508735790037,58.8508979934387,58.8508979934387,57.6508796826124,56.350859845884,56.2508583199818,57.4508766308081,59.1509025711453,59.8509132524606,58.5508934157321,55.1508415350577,51.0507789730679,48.2507362478066,48.3507377737088,51.0507789730679,54.9508384832533,57.950884260319,58.6508949416343,56.9508690012971,54.1508262760358,51.9507927061876,51.3507835507745,52.5508018616008,54.6508339055467,56.5508628976884,57.3508751049059,56.9508690012971,55.7508506904708,54.5508323796446,53.9508232242314,54.4508308537424,55.5508476386665,56.4508613717862,56.2508583199818,54.6508339055467,52.0507942320898,49.6507576104373,48.450739299611,48.9507469291219,50.550771343557,51.9507927061876,52.2507972838942,51.4507850766767,50.4507698176548,50.3507682917526,52.0507942320898,54.9508384832533,57.7508812085146,59.0509010452431,57.950884260319,54.9508384832533,51.5507866025789,49.2507515068285,49.0507484550241,50.7507743953614,53.0508094911117,54.9508384832533,55.5508476386665,55.0508400091555,54.1508262760358,53.5508171206227,53.4508155947205,53.8508216983292,53.9508232242314,53.2508125429161,51.4507850766767,48.8507454032197,46.0507026779584,44.0506721599146,43.6506660563059,44.8506843671322,47.3507225146869,50.1507652399482,52.150795757992,52.5508018616008,51.4507850766767,49.4507545586329,47.4507240405891,46.4507087815672,46.4507087815672,47.3507225146869,48.3507377737088,49.2507515068285,49.8507606622416,50.4507698176548,51.3507835507745,52.4508003356986,52.9508079652095,52.4508003356986,50.8507759212635,48.8507454032197,47.8507301441979,48.7507438773176,51.6507881284811,55.1508415350577,57.4508766308081,57.0508705271993,53.750820172427,49.0507484550241,44.8506843671322,42.7506523231862,43.2506599526971,45.5506950484475,47.9507316701,49.1507499809263,48.3507377737088,46.0507026779584,43.1506584267949,40.550618753338,38.6505897611964,37.6505745021745,37.1505668726636,36.6505592431526,35.7505455100329,34.750530251011,34.2505226215001,34.8505317769132,36.7505607690548,39.3506004425117,41.3506309605555,41.4506324864577,38.950594338903,34.8505317769132,30.9504722667278,29.1504448004884,29.8504554818037,31.9504875257497,33.3505088883803,32.3504936293585,29.3504478522928,26.1503990234227,25.1503837644008,27.0504127565424,30.550466163119,32.7504997329672,31.6504829480431,27.350417334249,22.3503410391395,19.450296787976,20.3503105210957,24.3503715571833,28.950441748684,31.8504859998475,32.3504936293585,31.3504783703366,30.3504631113147,30.0504585336081,30.0504585336081,29.4504493781949,28.3504325932709,27.6504219119555,28.7504386968796,31.9504875257497,36.1505516136417,39.0505958648052,38.950594338903,35.8505470359351,31.8504859998475,29.4504493781949,30.3504631113147,33.9505180437935,37.7505760280767,39.1505973907073,37.0505653467614,32.2504921034563,27.2504158083468,24.6503761348898,25.6503913939117,29.4504493781949,33.8505165178913,36.6505592431526,36.5505577172504,33.7505149919891,29.7504539559015,26.3504020752271,24.750377660792,24.8503791866942,25.9503959716183,27.1504142824446,27.5504203860533,27.1504142824446,26.3504020752271,25.8503944457161,25.9503959716183,26.4504036011293,27.1504142824446,27.350417334249,27.0504127565424,26.2504005493249,25.5503898680096,25.4503883421074,25.7503929198139,26.2504005493249,26.2504005493249,25.3503868162052,23.7503624017701,22.3503410391395,21.9503349355307,23.150353246357,25.4503883421074,27.9504264896621,29.3504478522928,29.2504463263906,27.8504249637599,26.0503974975205,24.9503807125964,24.9503807125964,25.8503944457161,26.6504066529336,26.5504051270314,24.9503807125964,22.0503364614329,18.6502845807585,16.1502464332037,15.3502342259862,16.7502555886169,19.8503028915847,23.3503562981614,25.8503944457161,26.3504020752271,25.0503822384986,22.7503471427482,20.6503150988023,19.450296787976,19.1502922102694,19.450296787976,20.0503059433891,21.3503257801176,23.9503654535745,28.2504310673687,34.1505210955979,40.9506248569468,47.7507286182957,54.250827801938,60.9509300373847,68.3510429541467,76.5511680781263,84.7512932021058,91.5513969634547,95.5514579995423,95.8514625772489,92.751415274281,86.4513191424431,77.6511848630504,66.9510215915161,55.2508430609599,43.1506584267949,31.3504783703366,19.9503044174869,8.75013351644169,-3.05004654001669,-15.4502357518882,-27.2504158083466,-36.5505577172502,-41.2506294346531,-40.3506157015334,-34.850531776913,-27.0504127565422,-19.550298313878,-14.1502159151597,-10.8501655603875,-8.55013046463713,-5.75008773937582,-1.85002822919042,3.25004959182126,8.55013046463731,12.8501960784315,15.5502372777906,16.1502464332037,15.0502296482796,12.7501945525293,10.3501579308767,8.55013046463731,7.95012130922417,8.15012436102855,8.6501319905395,8.6501319905395,7.95012130922417,7.15010910200665,6.95010605020227,7.75011825741979,9.35014267185483,11.0501686121921,11.6501777676052,10.5501609826811,8.15012436102855,5.35008163576724,3.05004654001688,2.25003433279936,2.75004196231031,4.25006485084315,5.85008926527819,6.45009842069132,5.65008621347381,3.45005264362563,0.550008392462134,-1.85002822919042,-2.85004348821231,-2.25003433279918,-0.550008392461952,1.05001602197308,1.75002670328841,1.15001754787527,-0.250003814755383,-1.85002822919042,-2.9500450141145,-3.75005722133202,-4.35006637674516,-5.05007705806049,-5.9500907911802,-6.65010147249552,-6.8501045242999,-6.65010147249552,-6.45009842069114,-6.55009994659333,-7.25011062790866,-8.35012741283275,-9.15013962005026,-9.25014114595245,-8.65013199053932,-7.75011825741961,-7.15010910200647,-7.25011062790866,-7.75011825741961,-8.05012283512618,-7.8501197833218,-7.35011215381085,-7.25011062790866,-7.95012130922399,-9.35014267185464,-10.6501625085831,-10.8501655603875,-9.65014724956121,-7.65011673151742,-6.05009231708238,-5.75008773937582,-6.65010147249552,-8.05012283512618,-9.05013809414807,-9.45014419775683,-9.7501487754634,-10.3501579308765,-11.5501762417028,-12.5501915007247,-12.7501945525291,-11.8501808194094,-10.7501640344853,-10.4501594567787,-11.7501792935072,-14.3502189669641,-17.0502601663232,-18.5502830548561,-18.3502800030517,-16.7502555886167,-14.4502204928663,-12.3501884489203,-10.8501655603875,-10.1501548790722,-10.2501564049744,-11.2501716639962,-12.8501960784313,-14.8502265964751,-16.3502494850079,-16.9502586404211,-16.4502510109101,-15.350234225986,-14.2502174410619,-13.750209811551,-13.750209811551,-14.0502143892576,-14.3502189669641,-14.6502235446707,-14.9502281223773,-15.1502311741816,-15.350234225986,-15.350234225986,-15.4502357518882,-15.850241855497,-16.7502555886167,-17.8502723735408,-18.7502861066605,-18.8502876325627,-18.0502754253451,-16.5502525368123,-15.2502327000838,-14.7502250705729,-15.2502327000838,-16.2502479591057,-17.5502677958342,-18.5502830548561,-19.2502937361714,-19.6502998397802,-19.8503028915846,-19.7503013656824,-19.6502998397802,-19.550298313878,-19.7503013656824,-20.2503089951933,-20.5503135728999,-20.3503105210955,-19.3502952620736,-18.1502769512473,-17.7502708476386,-18.9502891584649,-21.8503334096284,-25.4503883421072,-28.2504310673685,-28.9504417486838,-27.6504219119554,-25.5503898680094,-24.1503685053787,-24.2503700312809,-25.8503944457159,-27.5504203860532,-28.6504371709773,-28.6504371709773,-28.3504325932707,-28.4504341191729,-29.050443274586,-29.550450904097,-28.9504417486838,-27.0504127565422,-24.4503730830853,-22.8503486686503,-23.5503593499656,-26.5504051270313,-30.7504692149232,-34.2505226214999,-35.7505455100327,-35.2505378805218,-33.9505180437933,-33.0505043106736,-33.5505119401845,-35.2505378805218,-37.1505668726634,-38.2505836575875,-38.0505806057831,-36.950563820859,-35.5505424582283,-34.5505271992064,-34.4505256733043,-35.350539406424,-37.1505668726634,-39.4506019684137,-41.9506401159685,-44.1506736858166,-45.8506996261539,-46.7507133592736,-46.8507148851758,-46.3507072556648,-45.3506919966429,-44.0506721599145,-42.6506507972838,-41.4506324864575,-40.65062027924,-40.3506157015334,-40.3506157015334,-40.4506172274356,-40.2506141756313,-39.9506095979247,-39.8506080720225,-40.4506172274356,-41.7506370641641,-43.5506645304035,-44.9506858930342,-45.3506919966429,-44.850684367132,-43.8506691081101,-43.2506599526969,-43.3506614785991,-44.1506736858166,-44.5506797894254,-43.9506706340123,-42.250644693675,-40.1506126497291,-38.8505928130006,-39.2505989166094,-41.3506309605553,-44.1506736858166,-46.450708781567,-47.1507194628823,-46.2507057297626,-44.5506797894254,-43.3506614785991,-43.5506645304035,-45.0506874189364,-47.0507179369802,-48.4507392996108,-48.550740825513,-47.6507270923933,-46.1507042038604,-44.850684367132,-44.2506752117188,-44.1506736858166,-44.350676737621,-44.9506858930342,-45.7506981002517,-46.7507133592736,-47.4507240405889,-47.4507240405889,-46.1507042038604,-43.8506691081101,-41.4506324864575,-40.4506172274356,-41.5506340123597,-44.4506782635232,-47.9507316700999,-50.2507667658502,-50.3507682917524,-48.550740825513,-46.1507042038604,-44.4506782635232,-44.350676737621,-45.4506935225451,-46.7507133592736,-47.3507225146867,-47.0507179369802,-46.5507103074692,-46.7507133592736,-47.9507316700999,-49.9507621881437,-51.8507911802853,-52.5508018616006,-51.6507881284809,-49.2507515068283,-46.450708781567,-44.5506797894254,-44.2506752117188,-45.9507011520561,-48.8507454032196,-51.9507927061874,-54.35082932784,-55.6508491645685,-55.950853742275,-55.5508476386663,-54.6508339055466,-53.2508125429159,-51.1507804989699,-48.4507392996108,-45.8506996261539,-44.350676737621,-44.5506797894254,-46.5507103074692,-49.2507515068283,-51.0507789730677,-50.9507774471655,-48.7507438773174,-45.6506965743495,-43.0506569008926,-42.250644693675,-43.4506630045013,-45.7506981002517,-47.7507286182955,-48.3507377737086,-47.3507225146867,-45.4506935225451,-44.1506736858166,-44.0506721599145,-45.3506919966429,-46.950716411078,-47.8507301441977,-47.3507225146867,-45.7506981002517,-44.350676737621,-44.0506721599145,-44.9506858930342,-46.3507072556648,-47.0507179369802,-46.3507072556648,-44.6506813153276,-43.2506599526969,-43.4506630045013,-45.3506919966429,-48.3507377737086,-50.8507759212634,-51.4507850766765,-49.9507621881437,-47.3507225146867,-45.0506874189364,-44.350676737621,-45.5506950484473,-48.050733196002,-50.8507759212634,-52.8508064393072,-53.850821698329,-54.1508262760356,-54.7508354314488,-56.2508583199816,-58.7508964675363,-61.4509376668955,-63.2509651331349,-62.9509605554283,-60.3509208819714,-56.6508644235904,-53.4508155947203,-52.5508018616006,-54.4508308537422,-58.3508903639276,-62.1509483482108,-64.2509803921568,-63.850974288548,-61.5509391927977,-58.9508995193407,-57.7508812085144,-58.7508964675363,-61.4509376668955,-64.5509849698634,-66.7510185397115,-67.3510276951247,-66.451013962005,-64.9509910734721,-63.5509697108414,-62.5509544518195,-61.9509452964064,-61.5509391927977,-61.1509330891889,-61.2509346150911,-62.0509468223086,-63.7509727626458,-65.7510032806896,-67.3510276951247,-67.7510337987334,-67.0510231174181,-65.5510002288852,-63.9509758144502,-62.6509559777217,-61.6509407186998,-60.8509285114823,-59.9509147783626,-59.1509025711451,-59.0509010452429,-59.650910200656,-60.9509300373845,-62.4509529259174,-63.7509727626458,-64.4509834439612,-64.350981918059,-63.7509727626458,-62.5509544518195,-61.1509330891889,-59.8509132524604,-58.9508995193407,-59.0509010452429,-60.2509193560692,-62.250949874113,-64.5509849698634,-66.6510170138093,-68.2510414282444,-68.9510521095597,-68.6510475318531,-67.3510276951247,-65.2509956511787,-62.9509605554283,-61.1509330891889,-60.2509193560692,-60.2509193560692,-60.3509208819714,-59.9509147783626,-58.550893415732,-56.9508690012969,-56.0508552681772,-56.6508644235904,-58.4508918898298,-60.3509208819714,-60.9509300373845,-59.650910200656,-57.1508720531013,-54.8508369573509,-53.850821698329,-54.6508339055466,-56.1508567940794,-57.4508766308079,-57.8508827344166,-57.9508842603188,-58.9508995193407,-61.2509346150911,-64.5509849698634,-67.4510292210268,-68.7510490577553,-67.9510368505378,-65.951006332494,-64.4509834439612,-64.2509803921568,-65.3509971770809,-66.451013962005,-66.6510170138093,-65.5510002288852,-64.2509803921568,-63.850974288548,-65.0509925993743,-67.3510276951247,-69.651062790875,-70.5510765239947,-69.8510658426794,-67.6510322728312,-64.8509895475699,-61.5509391927977,-57.6508796826123,-52.750804913405,-46.7507133592736,-40.2506141756313,-33.9505180437933,-27.8504249637597,-21.3503257801174,-13.1502006561379,-2.65004043640794,9.35014267185483,20.4503120469979,27.4504188601512,27.9504264896621,21.6503303578242,10.1501548790723,-3.55005416952764,-17.0502601663232,-28.9504417486838,-39.6506050202181,-50.3507682917524,-61.8509437705042,-74.1511314564735,-86.1513145647363,-96.551473258564,-104.251590753033,-109.15166552224,-111.551702143892,-111.951708247501,-110.751689936675,-108.051648737316,-103.851584649424,-98.3515007248035,-91.9514030670633,-85.0512977798122,-78.051190966659,-71.5510917830166,-66.0510078583962,-61.8509437705042,-59.5509086747539,-59.1509025711451,-60.5509239337758,-62.8509590295261,-65.1509941252765,-66.8510200656137,-67.6510322728312,-67.551030746929,-66.7510185397115,-65.3509971770809,-63.7509727626458,-62.0509468223086,-60.5509239337758,-59.7509117265582,-59.5509086747539,-59.7509117265582,-59.9509147783626,-60.0509163042648,-60.150917830167,-60.3509208819714,-61.2509346150911,-62.5509544518195,-63.9509758144502,-65.0509925993743,-65.5510002288852,-65.6510017547874,-65.7510032806896,-66.0510078583962,-66.7510185397115,-67.4510292210268,-67.7510337987334,-67.3510276951247,-66.1510093842984,-64.4509834439612,-62.5509544518195,-61.0509315632867,-60.150917830167,-60.3509208819714,-61.3509361409933,-62.7509575036239,-64.1509788662546,-64.7509880216677,-64.350981918059,-63.1509636072327,-61.750942244602,-60.8509285114823,-61.1509330891889,-62.7509575036239,-65.2509956511787,-68.05103837644,-70.2510719462882,-71.2510872053101,-71.1510856794079,-70.2510719462882,-68.9510521095597,-67.8510353246356,-67.3510276951247,-67.2510261692225,-67.6510322728312,-68.05103837644,-68.4510444800488,-68.8510505836575,-69.1510551613641,-69.4510597390706,-69.9510673685816,-70.5510765239947,-71.4510902571144,-72.6511085679407,-73.7511253528648,-74.4511360341801,-73.851126878767,-71.6510933089188,-67.9510368505378,-63.850974288548,-60.9509300373845,-60.5509239337758,-62.9509605554283,-66.9510215915159,-70.6510780498969,-72.4511055161363,-72.0510994125276,-70.4510749980925,-69.7510643167772,-70.9510826276035,-73.851126878767,-76.7511711299305,-77.8511879148546,-76.2511635004195,-72.9511131456473,-70.2510719462882,-70.151070420386,-72.9511131456473,-77.1511772335392,-80.7512321660181,-81.8512489509422,-80.4512275883115,-78.1511924925611,-76.6511696040283,-76.9511741817349,-78.3511955443655,-79.5512138551918,-79.5512138551918,-78.3511955443655,-77.3511802853436,-77.551183337148,-79.151207751583,-81.1512382696268,-81.8512489509422,-80.1512230106049,-76.5511680781261,-72.8511116197451,-70.9510826276035,-71.751094834821,-74.2511329823758,-76.8511726558327,-77.9511894407568,-76.9511741817349,-74.7511406118867,-72.7511100938429,-71.8510963607232,-72.3511039902341,-73.351119249256,-73.9511284046692,-73.2511177233538,-71.3510887312122,-68.8510505836575,-66.8510200656137,-66.3510124361028,-67.8510353246356,-71.1510856794079,-75.1511467154955,-78.1511924925611,-78.9512046997787,-77.4511818112458,-74.4511360341801,-71.2510872053101,-69.2510566872663,-68.8510505836575,-69.3510582131685,-69.8510658426794,-69.651062790875,-69.2510566872663,-69.4510597390706,-71.1510856794079,-74.2511329823758,-77.8511879148546,-80.5512291142137,-81.1512382696268,-79.9512199588006,-77.9511894407568,-76.3511650263217,-76.1511619745174,-76.9511741817349,-78.051190966659,-78.6512001220721,-78.5511985961699,-78.1511924925611,-78.051190966659,-78.5511985961699,-79.4512123292896,-80.2512245365071,-80.3512260624093,-79.7512169069962,-78.9512046997787,-78.2511940184633,-78.051190966659,-78.4511970702677,-79.3512108033874,-80.3512260624093,-81.251239795529,-81.8512489509422,-81.75124742504,-81.0512367437246,-79.9512199588006,-79.0512062256808,-78.9512046997787,-79.8512184328984,-81.3512413214312,-82.7512626840619,-83.351271839475,-82.8512642099641,-81.5512443732356,-80.1512230106049,-79.2512092774852,-78.8512031738765,-79.151207751583,-79.7512169069962,-80.6512306401159,-81.6512458991378,-82.2512550545509,-82.2512550545509,-81.1512382696268,-79.2512092774852,-77.551183337148,-77.1511772335392,-78.7512016479743,-81.9512504768444,-85.3513023575188,-87.3513328755626,-86.8513252460516,-84.1512840466925,-80.9512352178225,-78.9512046997787,-79.3512108033874,-81.75124742504,-84.8512947280079,-86.9513267719538,-87.051328297856,-85.3513023575188,-82.8512642099641,-80.7512321660181,-79.8512184328984,-80.3512260624093,-81.8512489509422,-83.6512764171816,-85.2513008316166,-86.3513176165407,-86.6513221942473,-85.9513115129319,-84.1512840466925,-81.9512504768444,-80.0512214847028,-79.4512123292896,-80.7512321660181,-83.5512748912794,-86.7513237201495,-88.9513572899976,-89.5513664454108,-88.3513481345845,-86.4513191424429,-84.95129625391,-84.6512916762035,-85.5513054093232,-87.051328297856,-88.2513466086823,-88.7513542381932,-88.4513496604867,-87.7513389791714,-86.8513252460516,-86.0513130388341,-85.7513084611276,-85.9513115129319,-86.9513267719538,-88.3513481345845,-89.7513694972152,-90.2513771267261,-89.7513694972152,-88.2513466086823,-86.8513252460516,-86.3513176165407,-87.1513298237582,-88.7513542381932,-89.9513725490195,-89.7513694972152,-88.1513450827801,-86.0513130388341,-84.6512916762035,-84.7512932021057,-86.1513145647363,-87.7513389791714,-88.1513450827801,-87.1513298237582,-85.1512993057144,-83.5512748912794,-83.2512703135728,-84.6512916762035,-87.051328297856,-89.3513633936064,-90.6513832303349,-90.6513832303349,-90.0513740749217,-89.4513649195086,-89.5513664454108,-90.4513801785305,-91.5513969634546,-92.2514076447699,-91.6513984893568,-89.651367971313,-86.2513160906385,-82.4512581063553,-79.151207751583,-77.3511802853436,-77.4511818112458,-79.3512108033874,-82.2512550545509,-84.8512947280079,-86.3513176165407,-86.4513191424429,-85.3513023575188,-83.9512809948881,-83.1512687876706,-83.5512748912794,-85.1512993057144,-87.051328297856,-88.4513496604867,-88.2513466086823,-86.6513221942473,-84.4512886243991,-82.8512642099641,-82.7512626840619,-83.9512809948881,-85.451303883421,-85.6513069352254,-84.0512825207903,-81.251239795529,-78.6512001220721,-78.051190966659,-79.9512199588006,-83.6512764171816,-87.7513389791714,-90.6513832303349,-91.5513969634546,-90.8513862821392,-89.151360341802,-87.1513298237582,-85.451303883421,-84.5512901503013,-84.8512947280079,-86.6513221942473,-89.7513694972152,-93.2514229037918,-95.6514595254443,-96.2514686808575,-95.0514503700312,-92.851416800183,-91.0513893339436,-90.5513817044327,-91.3513939116502,-92.6514137483786,-93.6514290074005,-93.6514290074005,-92.9514183260852,-92.1514061188677,-91.8514015411611,-92.4514106965743,-93.8514320592049,-95.6514595254443,-97.4514869916838,-98.7515068284122,-99.151512932021,-98.65150530251,-97.6514900434881,-96.8514778362706,-96.9514793621728,-98.4515022507056,-100.751537346456,-102.7515678645,-103.051572442206,-101.151543450065,-97.8514930952925,-94.8514473182268,-94.0514351110093,-96.1514671549553,-100.051526665141,-103.851584649424,-105.651612115663,-104.851599908446,-102.451563286793,-100.451532768749,-100.051526665141,-101.451548027771,-103.351577019913,-104.351592278935,-103.65158159762,-102.051557183184,-100.551534294652,-100.251529716945,-101.051541924163,-102.251560234989,-102.7515678645,-102.051557183184,-100.551534294652,-98.8515083543144,-97.9514946211947,-98.4515022507056,-100.151528191043,-102.7515678645,-105.251606012055,-106.451624322881,-105.851615167468,-103.551580071717,-100.651535820554,-98.5515037766078,-98.4515022507056,-100.251529716945,-102.651566338598,-103.951586175326,-103.351577019913,-101.351546501869,-99.6515205615319,-99.2515144579232,-100.251529716945,-101.351546501869,-101.251544975967,-99.4515175097275,-96.9514793621728,-95.3514549477378,-95.9514641031509,-98.5515037766078,-101.651551079576,-103.551580071717,-103.751583123522,-103.151573968109,-103.451578545815,-105.751613641565,-109.451670099947,-112.651718928817,-113.25172808423,-110.251682307164,-104.751598382544,-99.0515114061188,-95.45145647364,-95.2514534218356,-97.6514900434881,-100.551534294652,-102.151558709087,-101.651551079576,-99.5515190356297,-97.6514900434881,-96.9514793621728,-98.2514991989013,-100.851538872358,-103.951586175326,-106.85163042649,-109.051663996338,-110.451685358968,-111.051694514382,-110.751689936675,-109.251667048142,-106.751628900587,-103.851584649424,-100.95154039826,-98.1514976729991,-94.4514412146181,-88.7513542381932,-80.2512245365071,-69.1510551613641,-56.7508659494925,-45.0506874189364,-35.8505470359349,-29.7504539559013,-26.5504051270313,-25.6503913939116,-26.3504020752269,-28.7504386968794,-33.0505043106736,-39.5506034943159,-48.2507362478064,-58.8508979934385,-71.2510872053101,-85.3513023575188,-100.751537346456,-116.851783016709,-132.352019531548,-145.25221637293,-154.052350652323,-157.952410162508,-157.652405584802,-154.952364385443,-151.752315556573,-149.252277409018,-147.652252994583,-145.852225528344,-142.452173647669,-136.652085145342,-129.151970702678,-121.151848630503,-114.65174944686,-110.751689936675,-109.651673151751,-110.251682307164,-111.151696040284,-111.151696040284,-109.951677729457,-108.051648737316,-106.751628900587,-106.451624322881,-107.151635004196,-108.051648737316,-107.951647211414,-106.651627374685,-104.851599908446,-103.751583123522,-104.451593804837,-106.85163042649,-109.851676203555,-111.551702143892,-110.851691462577,-108.25165178912,-105.451609063859,-104.651596856641,-106.251621271076,-109.351668574044,-111.651703669795,-111.45170061799,-108.751659418631,-104.851599908446,-102.051557183184,-101.651551079576,-103.251575494011,-105.351607537957,-106.451624322881,-105.851615167468,-104.251590753033,-102.7515678645,-102.251560234989,-102.651566338598,-103.551580071717,-104.451593804837,-105.251606012055,-105.95161669337,-106.551625848783,-106.551625848783,-105.751613641565,-104.251590753033,-102.851569390402,-102.451563286793,-103.451578545815,-105.551610589761,-107.551641107805,-108.351653315022,-107.651642633707,-105.95161669337,-104.15158922713,-103.251575494011,-103.151573968109,-103.851584649424,-104.851599908446,-106.151619745174,-107.551641107805,-108.951662470436,-110.05167925536,-110.351683833066,-109.951677729457,-109.15166552224,-108.751659418631,-108.851660944533,-109.251667048142,-108.851660944533,-106.951631952392,-103.65158159762,-100.251529716945,-98.5515037766078,-99.5515190356297,-103.051572442206,-107.351638056001,-110.151680781262,-110.151680781262,-107.751644159609,-104.651596856641,-102.7515678645,-103.051572442206,-105.151604486152,-107.051633478294,-107.251636530098,-105.151604486152,-102.051557183184,-99.8515236133363,-100.151528191043,-103.351577019913,-107.651642633707,-110.951692988479,-111.45170061799,-109.051663996338,-104.951601434348,-101.151543450065,-99.151512932021,-99.2515144579232,-100.95154039826,-103.251575494011,-105.451609063859,-107.151635004196,-108.051648737316,-108.051648737316,-107.051633478294,-105.351607537957,-103.65158159762,-102.851569390402,-103.551580071717,-105.451609063859,-107.751644159609,-109.15166552224,-109.15166552224,-107.951647211414,-106.351622796979,-105.451609063859,-105.551610589761,-106.651627374685,-107.851645685511,-108.651657892729,-108.351653315022,-106.85163042649,-104.551595330739,-102.151558709087,-100.451532768749,-100.051526665141,-101.151543450065,-103.251575494011,-105.351607537957,-106.251621271076,-105.651612115663,-103.851584649424,-102.151558709087,-102.051557183184,-104.051587701228,-107.751644159609,-111.45170061799,-113.351729610132,-112.451715877012,-109.251667048142,-105.451609063859,-102.851569390402,-102.451563286793,-104.051587701228,-106.451624322881,-108.451654840925,-109.351668574044,-109.551671625849,-109.751674677653,-110.351683833066,-110.851691462577,-110.351683833066,-108.651657892729,-106.151619745174,-104.251590753033,-104.051587701228,-105.751613641565,-108.151650263218,-109.651673151751,-109.15166552224,-106.751628900587,-103.851584649424,-101.651551079576,-100.95154039826,-101.451548027771,-102.151558709087,-102.551564812695,-102.651566338598,-103.251575494011,-105.251606012055,-108.351653315022,-111.651703669795,-113.651734187838,-113.25172808423,-110.451685358968,-106.451624322881,-102.951570916304,-101.551549553674,-102.7515678645,-105.751613641565,-108.851660944533,-110.851691462577,-111.251697566186,-110.351683833066,-109.351668574044,-108.751659418631,-108.651657892729,-108.451654840925,-107.751644159609,-106.451624322881,-105.251606012055,-104.851599908446,-105.351607537957,-106.551625848783,-107.451639581903,-107.751644159609,-107.451639581903,-107.051633478294,-106.951631952392,-107.151635004196,-107.051633478294,-105.95161669337,-103.951586175326,-101.85155413138,-100.851538872358,-101.451548027771,-103.251575494011,-105.251606012055,-105.95161669337,-104.951601434348,-102.851569390402,-100.651535820554,-99.7515220874341,-100.551534294652,-102.451563286793,-104.351592278935,-105.451609063859,-105.351607537957,-104.451593804837,-103.351577019913,-102.651566338598,-102.251560234989,-102.151558709087,-101.751552605478,-100.95154039826,-99.9515251392385,-98.9515098802166,-98.5515037766078,-99.151512932021,-101.051541924163,-103.751583123522,-106.351622796979,-107.651642633707,-107.051633478294,-104.551595330739,-101.451548027771,-99.4515175097275,-99.4515175097275,-101.351546501869,-104.15158922713,-106.551625848783,-107.551641107805,-107.351638056001,-106.651627374685,-106.051618219272,-105.651612115663,-105.05160296025,-103.851584649424,-102.251560234989,-100.95154039826,-100.651535820554,-101.551549553674,-103.051572442206,-103.951586175326,-103.451578545815,-101.251544975967,-98.1514976729991,-95.3514549477378,-94.0514351110093,-94.7514457923246,-96.8514778362706,-98.9515098802166,-99.9515251392385,-99.3515159838254,-97.5514885175859,-95.9514641031509,-95.45145647364,-96.4514717326619,-98.3515007248035,-99.8515236133363,-100.151528191043,-99.151512932021,-97.6514900434881,-96.551473258564,-96.551473258564,-97.6514900434881,-98.9515098802166,-99.7515220874341,-99.3515159838254,-98.1514976729991,-96.551473258564,-95.3514549477378,-94.8514473182268,-95.1514518959334,-95.2514534218356,-94.6514442664224,-92.7514152742808,-89.9513725490195,-87.551335927367,-86.8513252460516,-88.4513496604867,-91.7514000152589,-95.1514518959334,-96.8514778362706,-96.0514656290531,-93.4514259555962,-90.6513832303349,-89.0513588158998,-89.151360341802,-90.0513740749217,-90.5513817044327,-89.651367971313,-87.8513405050735,-86.1513145647363,-85.3513023575188,-85.9513115129319,-87.551335927367,-89.2513618677042,-90.5513817044327,-91.3513939116502,-91.9514030670633,-92.4514106965743,-92.851416800183,-92.851416800183,-92.6514137483786,-92.3514091706721,-92.2514076447699,-92.7514152742808,-93.8514320592049,-95.1514518959334,-96.2514686808575,-96.9514793621728,-97.3514854657816,-97.7514915693903,-98.4515022507056,-99.5515190356297,-100.651535820554,-101.251544975967,-100.95154039826,-99.8515236133363,-98.5515037766078,-97.8514930952925,-98.4515022507056,-100.451532768749,-102.851569390402,-104.851599908446,-105.251606012055,-104.051587701228,-101.951555657282,-100.051526665141,-99.151512932021,-99.6515205615319,-101.051541924163,-102.251560234989,-102.351561760891,-100.551534294652,-97.2514839398794,-93.1514213778896,-89.651367971313,-87.6513374532692,-87.7513389791714,-89.651367971313,-92.6514137483786,-95.5514579995422,-97.5514885175859,-97.9514946211947,-96.7514763103684,-94.6514442664224,-92.3514091706721,-91.0513893339436,-91.1513908598458,-92.5514122224765,-94.5514427405202,-96.2514686808575,-96.7514763103684,-96.1514671549553,-94.8514473182268,-93.5514274814984,-92.7514152742808,-92.6514137483786,-93.1514213778896,-93.7514305333027,-94.4514412146181,-95.0514503700312,-95.45145647364,-95.5514579995422,-95.1514518959334,-94.0514351110093,-92.5514122224765,-91.0513893339436,-89.9513725490195,-89.4513649195086,-89.651367971313,-90.3513786526283,-91.3513939116502,-92.3514091706721,-93.0514198519874,-93.351424429694,-93.1514213778896,-92.7514152742808,-92.4514106965743,-92.5514122224765,-93.0514198519874,-93.6514290074005,-93.5514274814984,-92.5514122224765,-90.4513801785305,-87.9513420309757,-85.7513084611276,-84.6512916762035,-85.0512977798122,-86.8513252460516,-89.3513633936064,-91.8514015411611,-93.4514259555962,-93.8514320592049,-93.0514198519874,-91.6513984893568,-90.1513756008239,-89.0513588158998,-88.3513481345845,-87.9513420309757,-87.2513313496604,-86.3513176165407,-85.3513023575188,-84.8512947280079,-85.2513008316166,-86.3513176165407,-87.551335927367,-88.3513481345845,-88.0513435568779,-87.051328297856,-86.0513130388341,-85.7513084611276,-86.6513221942473,-88.3513481345845,-89.8513710231173,-90.2513771267261,-88.7513542381932,-85.451303883421,-80.6512306401159,-75.0511451895933,-69.1510551613641,-63.0509620813305,-56.5508628976882,-49.2507515068283,-40.8506233310444,-31.5504814221408,-21.650330357824,-11.8501808194094,-3.35005111772326,2.55003891050593,4.65007095445191,2.35003585870155,-4.35006637674516,-14.3502189669641,-26.1503990234225,-38.7505912870984,-51.7507896543831,-65.0509925993743,-78.8512031738765,-92.9514183260852,-106.151619745174,-116.951784542611,-124.251895933471,-127.751949340047,-128.151955443656,-126.551931029221,-124.151894407568,-121.451853208209,-118.451807431144,-114.751750972763,-109.851676203555,-103.751583123522,-96.7514763103684,-90.0513740749217,-84.95129625391,-82.2512550545509,-81.6512458991378,-82.1512535286487,-82.0512520027465,-80.3512260624093,-77.4511818112458,-74.8511421377889,-74.2511329823758,-76.5511680781261,-80.5512291142137,-83.7512779430838,-84.1512840466925,-81.251239795529,-76.5511680781261,-72.7511100938429,-72.0510994125276,-74.5511375600823,-78.4511970702677,-81.6512458991378,-82.6512611581597,-81.8512489509422,-80.4512275883115,-79.9512199588006,-80.3512260624093,-80.7512321660181,-80.2512245365071,-78.4511970702677,-76.3511650263217,-75.1511467154955,-75.7511558709086,-77.551183337148,-79.0512062256808,-78.9512046997787,-77.0511757076371,-74.1511314564735,-72.0510994125276,-72.0510994125276,-74.0511299305714,-76.9511741817349,-79.151207751583,-79.9512199588006,-79.5512138551918,-79.151207751583,-79.3512108033874,-79.7512169069962,-79.5512138551918,-77.7511863889524,-74.5511375600823,-71.2510872053101,-69.5510612649728,-70.3510734721904,-72.9511131456473,-75.6511543450064,-76.9511741817349,-76.1511619745174,-74.3511345082779,-73.2511177233538,-73.7511253528648,-75.8511573968108,-78.1511924925611,-79.4512123292896,-79.2512092774852,-78.1511924925611,-77.1511772335392,-76.6511696040283,-76.4511665522239,-76.1511619745174,-75.451151293202,-74.7511406118867,-74.5511375600823,-75.0511451895933,-75.951158922713,-76.2511635004195,-75.5511528191042,-74.1511314564735,-72.9511131456473,-72.9511131456473,-74.1511314564735,-75.951158922713,-76.9511741817349,-76.4511665522239,-74.5511375600823,-71.9510978866254,-69.651062790875,-68.4510444800488,-68.4510444800488,-69.651062790875,-71.5510917830166,-73.851126878767,-75.951158922713,-77.0511757076371,-76.8511726558327,-75.2511482413976,-72.9511131456473,-70.8510811017013,-69.8510658426794,-70.0510688944838,-71.1510856794079,-72.4511055161363,-73.351119249256,-73.5511223010604,-73.2511177233538,-72.3511039902341,-70.9510826276035,-69.0510536354619,-66.9510215915159,-65.1509941252765,-64.2509803921568,-64.350981918059,-65.2509956511787,-65.951006332494,-65.8510048065918,-64.6509864957655,-62.9509605554283,-61.5509391927977,-61.2509346150911,-61.9509452964064,-63.0509620813305,-63.6509712367436,-63.1509636072327,-61.8509437705042,-60.5509239337758,-60.4509224078736,-62.0509468223086,-64.7509880216677,-67.3510276951247,-68.4510444800488,-67.7510337987334,-65.7510032806896,-64.0509773403524,-63.7509727626458,-65.1509941252765,-67.2510261692225,-68.6510475318531,-68.1510399023422,-65.951006332494,-63.3509666590371,-62.0509468223086,-62.9509605554283,-65.6510017547874,-68.8510505836575,-71.0510841535057,-71.2510872053101,-69.8510658426794,-68.05103837644,-66.7510185397115,-66.451013962005,-66.8510200656137,-67.3510276951247,-67.3510276951247,-66.9510215915159,-66.6510170138093,-66.6510170138093,-67.0510231174181,-67.7510337987334,-68.3510429541465,-68.5510460059509,-68.05103837644,-66.7510185397115,-64.9509910734721,-63.2509651331349,-62.5509544518195,-63.2509651331349,-65.4509987029831,-67.9510368505378,-69.3510582131685,-68.6510475318531,-65.8510048065918,-62.250949874113,-59.7509117265582,-59.3509056229495,-61.1509330891889,-63.9509758144502,-66.3510124361028,-67.6510322728312,-67.551030746929,-66.8510200656137,-65.7510032806896,-64.5509849698634,-63.3509666590371,-62.1509483482108,-61.3509361409933,-61.2509346150911,-61.8509437705042,-62.6509559777217,-62.9509605554283,-62.5509544518195,-61.3509361409933,-60.0509163042648,-59.2509040970473,-59.2509040970473,-59.9509147783626,-61.0509315632867,-62.4509529259174,-64.0509773403524,-65.7510032806896,-67.3510276951247,-68.5510460059509,-68.8510505836575,-68.1510399023422,-66.6510170138093,-65.0509925993743,-63.850974288548,-63.3509666590371,-63.2509651331349,-62.9509605554283,-61.750942244602,-59.3509056229495,-56.3508598458838,-54.0508247501334,-53.3508140688181,-54.8508369573509,-58.2508888380254,-62.250949874113,-65.3509971770809,-66.5510154879071,-65.4509987029831,-62.6509559777217,-59.0509010452429,-55.5508476386663,-53.0508094911115,-52.0507942320896,-52.9508079652093,-55.4508461127641,-58.4508918898298,-60.9509300373845,-61.6509407186998,-60.2509193560692,-57.2508735790035,-53.9508232242312,-51.8507911802853,-51.6507881284809,-53.0508094911115,-55.2508430609597,-57.2508735790035,-58.4508918898298,-58.7508964675363,-58.3508903639276,-57.6508796826123,-57.2508735790035,-56.9508690012969,-56.6508644235904,-56.0508552681772,-54.8508369573509,-52.9508079652093,-50.8507759212634,-49.1507499809261,-48.4507392996108,-48.9507469291218,-50.3507682917524,-51.7507896543831,-52.1507957579918,-51.2507820248721,-49.4507545586327,-47.6507270923933,-46.8507148851758,-47.6507270923933,-49.7507591363393,-52.250797283894,-54.1508262760356,-54.4508308537422,-53.1508110170137,-50.3507682917524,-47.0507179369802,-44.1506736858166,-42.250644693675,-41.8506385900663,-42.8506538490882,-44.7506828412298,-46.6507118333714,-48.050733196002,-48.550740825513,-48.1507347219042,-47.2507209887845,-46.3507072556648,-45.8506996261539,-45.6506965743495,-45.4506935225451,-44.9506858930342,-44.0506721599145,-42.750652323186,-41.6506355382619,-41.150627908751,-41.5506340123597,-42.8506538490882,-44.5506797894254,-45.9507011520561,-46.450708781567,-45.6506965743495,-43.5506645304035,-40.8506233310444,-38.550588235294,-37.6505745021743,-38.4505867093918,-40.65062027924,-43.2506599526969,-44.9506858930342,-45.2506904707407,-43.9506706340123,-41.7506370641641,-39.4506019684137,-37.8505775539787,-37.1505668726634,-37.3505699244678,-38.3505851834896,-39.6506050202181,-40.9506248569466,-41.8506385900663,-42.1506431677729,-41.6506355382619,-40.5506187533378,-39.4506019684137,-38.9505943389028,-39.2505989166094,-40.4506172274356,-42.1506431677729,-44.0506721599145,-45.6506965743495,-46.7507133592736,-47.1507194628823,-46.5507103074692,-45.1506889448385,-43.0506569008926,-41.0506263828488,-39.8506080720225,-40.0506111238269,-41.5506340123597,-43.9506706340123,-46.450708781567,-48.4507392996108,-49.6507576104371,-50.2507667658502,-50.3507682917524,-49.8507606622415,-48.9507469291218,-47.6507270923933,-46.450708781567,-45.9507011520561,-46.3507072556648,-47.2507209887845,-48.1507347219042,-48.2507362478064,-47.2507209887845,-45.8506996261539,-44.850684367132,-44.9506858930342,-46.1507042038604,-47.7507286182955,-48.550740825513,-48.2507362478064,-46.950716411078,-45.1506889448385,-43.8506691081101,-43.1506584267948,-43.0506569008926,-43.3506614785991,-43.6506660563057,-44.1506736858166,-44.7506828412298,-45.3506919966429,-45.5506950484473,-44.9506858930342,-43.5506645304035,-41.3506309605553,-39.2505989166094,-37.7505760280765,-37.2505683985656,-38.0505806057831,-39.4506019684137,-41.0506263828488,-41.9506401159685,-41.8506385900663,-40.65062027924,-39.050595864805,-37.8505775539787,-37.7505760280765,-38.9505943389028,-41.150627908751,-43.4506630045013,-44.9506858930342,-44.9506858930342,-43.7506675822079,-41.8506385900663,-40.1506126497291,-39.1505973907072,-39.1505973907072,-40.0506111238269,-41.4506324864575,-42.6506507972838,-43.2506599526969,-42.8506538490882,-41.6506355382619,-39.9506095979247,-38.550588235294,-37.9505790798809,-37.9505790798809,-38.2505836575875,-38.0505806057831,-37.0505653467612,-35.4505409323261,-34.1505210955977,-33.9505180437933,-34.9505333028152,-36.950563820859,-38.6505897611962,-39.5506034943159,-39.3506004425115,-38.550588235294,-37.7505760280765,-37.4505714503699,-37.5505729762721,-37.9505790798809,-38.1505821316853,-37.9505790798809,-37.2505683985656,-36.1505516136415,-34.7505302510108,-33.1505058365758,-31.7504844739451,-30.8504707408254,-30.8504707408254,-31.9504875257495,-33.9505180437933,-36.450556191348,-38.8505928130006,-40.4506172274356,-41.150627908751,-40.65062027924,-39.2505989166094,-36.8505622949568,-33.7505149919889,-29.7504539559013,-24.6503761348897,-18.3502800030517,-11.0501686121919,-3.35005111772326,4.45006790264753,12.0501838712139,19.6502998397804,27.7504234378577,36.350554665446,44.5506797894256,50.8507759212635,52.9508079652095,49.6507576104373,40.8506233310446,28.2504310673687,14.3502189669643,1.35002059967965,-10.05015335317,-20.3503105210955,-30.8504707408254,-42.4506477454794,-54.7508354314488,-66.0510078583962,-74.6511390859845,-79.4512123292896,-80.5512291142137,-79.2512092774852,-76.6511696040283,-73.6511238269626,-69.9510673685816,-65.0509925993743,-58.6508949416342,-51.0507789730677,-43.4506630045013,-37.2505683985656,-33.250507362478,-31.6504829480429,-31.7504844739451,-32.4504951552605,-33.0505043106736,-33.0505043106736,-32.4504951552605,-31.4504798962386,-30.4504646372167,-29.8504554818035,-29.6504524299991,-30.2504615854123,-31.2504768444342,-32.5504966811626,-33.6505134660867,-34.1505210955977,-33.8505165178911,-33.0505043106736,-31.9504875257495,-30.9504722667276,-30.1504600595101,-29.3504478522926,-28.3504325932707,-27.2504158083466,-26.0503974975203,-25.1503837644006,-25.1503837644006,-26.0503974975203,-27.5504203860532,-29.050443274586,-29.6504524299991,-29.1504448004882,-27.7504234378575,-26.4504036011291,-26.0503974975203,-26.8504097047378,-28.4504341191729,-29.8504554818035,-30.2504615854123,-29.7504539559013,-29.1504448004882,-29.4504493781948,-31.3504783703364,-33.9505180437933,-35.9505485618371,-35.8505470359349,-33.4505104142824,-29.6504524299991,-26.0503974975203,-23.8503639276721,-23.4503578240634,-24.3503715571831,-25.6503913939116,-27.0504127565422,-28.3504325932707,-29.550450904097,-30.4504646372167,-30.5504661631189,-29.4504493781948,-27.0504127565422,-24.0503669794765,-21.4503273060196,-20.2503089951933,-20.7503166247043,-22.6503456168459,-25.350386816205,-27.8504249637597,-29.550450904097,-30.0504585336079,-29.7504539559013,-29.3504478522926,-29.9504570077057,-31.8504859998473,-34.7505302510108,-37.4505714503699,-38.4505867093918,-36.8505622949568,-33.1505058365758,-28.8504402227816,-25.6503913939116,-24.6503761348897,-25.9503959716181,-28.3504325932707,-30.5504661631189,-31.3504783703364,-30.5504661631189,-28.8504402227816,-26.95041123064,-25.4503883421072,-24.7503776607919,-24.9503807125962,-25.8503944457159,-26.8504097047378,-27.2504158083466,-26.5504051270313,-24.4503730830853,-21.4503273060196,-18.5502830548561,-16.8502571145189,-16.8502571145189,-18.4502815289539,-20.6503150988021,-22.0503364614327,-22.2503395132371,-21.2503242542152,-19.9503044174867,-19.1502922102692,-19.1502922102692,-19.7503013656824,-20.1503074692911,-20.0503059433889,-19.4502967879758,-18.7502861066605,-18.5502830548561,-19.050290684367,-19.9503044174867,-20.9503196765086,-21.5503288319218,-21.7503318837262,-21.3503257801174
